E_d[kV/cm], drift_velocity [cm/microsec]
0.0,	0.00
0.5,	4.52
1.0,	6.66
1.5,	8.01
2.0,	8.94
2.5,	9.57
3.0,	9.94
3.5,	10.08
4.0,	10.01
4.5,	9.78
5.0,	9.43
5.5,	9.05
6.0,	8.68
6.5,	8.35
7.0,	8.10
7.5,	7.90
8.0,	7.77
8.5,	7.68
9.0,	7.64
9.5,	7.62
10.0,	7.63
10.5,	7.66
11.0,	7.71
11.5,	7.78
